Mean Scattering Cross-Section: Angle, Cross-section
0 4.48281e+08
0.0174533 4.39622e+08
0.0349066 4.1375e+08
0.0523599 3.7328e+08
0.0698132 3.22185e+08
0.0872665 2.65238e+08
0.10472 2.07364e+08
0.122173 1.53011e+08
0.139626 1.05649e+08
0.15708 6.74505e+07
0.174533 3.92079e+07
0.191986 2.04559e+07
0.20944 9.76681e+06
0.226893 5.14159e+06
0.244346 4.41846e+06
0.261799 5.62667e+06
0.279253 7.23474e+06
0.296706 8.2692e+06
0.314159 8.30861e+06
0.331613 7.37999e+06
0.349066 5.79902e+06
0.366519 3.99787e+06
0.383972 2.37813e+06
0.401426 1.21309e+06
0.418879 607975
0.436332 512114
0.453786 767175
0.471239 1.1709e+06
0.488692 1.53714e+06
0.506145 1.73814e+06
0.523599 1.72281e+06
0.541052 1.51168e+06
0.558505 1.17508e+06
0.575959 803718
0.593412 480694
0.610865 261598
0.628319 166003
0.645772 179926
0.663225 266255
0.680678 378758
0.698132 475370
0.715585 527572
0.733038 524374
0.750492 471097
0.767945 384410
0.785398 285698
0.802851 194776
0.820305 125428
0.837758 83456.3
0.855211 67148.9
0.872665 69496.3
0.890118 81205.6
0.907571 93589.1
0.925025 100636
0.942478 99939.5
0.959931 92486.8
0.977384 81616.5
0.994838 71557.7
1.01229 66003.3
1.02974 67063.5
1.0472 74798.3
1.06465 87356.5
1.0821 101604
1.09956 114025
1.11701 121648
1.13446 122767
1.15192 117301
1.16937 106731
1.18682 93660.5
1.20428 81133.4
1.22173 71878.3
1.23918 67675.9
1.25664 68991.8
1.27409 74952.7
1.29154 83654.3
1.309 92708.6
1.32645 99885
1.3439 103677
1.36136 103662
1.37881 100561
1.39626 96006
1.41372 92080.2
1.43117 90745.5
1.44862 93317.2
1.46608 100106
1.48353 110314
1.50098 122204
1.51844 133495
1.53589 141889
1.55334 145598
1.5708 143760
1.58825 136639
1.6057 125579
1.62316 112721
1.64061 100550
1.65806 91367.5
1.67552 86807.6
1.69297 87500.2
1.71042 92948.1
1.72788 101649
1.74533 111435
1.76278 119963
1.78024 125249
1.79769 126137
1.81514 122597
1.8326 115786
1.85005 107854
1.8675 101524
1.88496 99535.2
1.90241 104066
1.91986 116253
1.93732 135911
1.95477 161524
1.97222 190492
1.98968 219595
2.00713 245569
2.02458 265676
2.04204 278147
2.05949 282419
2.07694 279122
2.0944 269846
2.11185 256741
2.1293 242048
2.14675 227679
2.16421 214907
2.18166 204239
2.19911 195470
2.21657 187889
2.23402 180566
2.25147 172659
2.26893 163650
2.28638 153484
2.30383 142574
2.32129 131683
2.33874 121738
2.35619 113608
2.37365 107903
2.3911 104846
2.40855 104229
2.42601 105463
2.44346 107702
2.46091 110010
2.47837 111533
2.49582 111647
2.51327 110046
2.53073 106770
2.54818 102171
2.56563 96820.9
2.58309 91394.9
2.60054 86549
2.61799 82810.3
2.63545 80499.3
2.6529 79692.3
2.67035 80224.6
2.68781 81728.9
2.70526 83700.4
2.72271 85574.4
2.74017 86806.3
2.75762 86942.2
2.77507 85673.1
2.79253 82867.2
2.80998 78579.1
2.82743 73036.7
2.84489 66607.7
2.86234 59752.7
2.87979 52968.7
2.89725 46730.9
2.9147 41439.5
2.93215 37377.7
2.94961 34686.4
2.96706 33358
2.98451 33249.4
3.00197 34113.9
3.01942 35643.6
3.03687 37518.5
3.05433 39452.1
3.07178 41227.7
3.08923 42718
3.10669 43888.3
3.12414 44780.1
3.14159 45482.4
