Mean Scattering Cross-Section: Angle, Cross-section
0 5.83055e+08
0.0174533 5.64918e+08
0.0349066 5.12781e+08
0.0523599 4.34793e+08
0.0698132 3.42547e+08
0.0872665 2.48631e+08
0.10472 1.64131e+08
0.122173 9.67165e+07
0.139626 4.97132e+07
0.15708 2.22623e+07
0.174533 1.03903e+07
0.191986 8.58021e+06
0.20944 1.13627e+07
0.226893 1.45225e+07
0.244346 1.56862e+07
0.261799 1.42773e+07
0.279253 1.10036e+07
0.296706 7.14095e+06
0.314159 3.87719e+06
0.331613 1.89701e+06
0.349066 1.27057e+06
0.366519 1.59468e+06
0.383972 2.26642e+06
0.401426 2.75558e+06
0.418879 2.77816e+06
0.436332 2.33305e+06
0.453786 1.62379e+06
0.471239 923368
0.488692 447255
0.506145 280681
0.523599 374574
0.541052 595142
0.558505 795094
0.575959 873718
0.593412 804992
0.610865 630085
0.628319 425311
0.645772 263651
0.663225 186359
0.680678 193547
0.698132 253194
0.715585 320929
0.733038 360410
0.750492 356084
0.767945 314944
0.785398 258901
0.802851 212780
0.820305 193553
0.837758 204785
0.855211 237410
0.872665 275262
0.890118 302310
0.907571 308505
0.925025 292350
0.942478 259895
0.959931 221272
0.977384 186541
0.994838 162464
1.01229 151144
1.02974 150552
1.0472 156311
1.06465 163780
1.0821 169649
1.09956 172598
1.11701 173065
1.13446 172458
1.15192 172257
1.16937 173388
1.18682 176028
1.20428 179781
1.22173 184072
1.23918 188508
1.25664 193092
1.27409 198208
1.29154 204456
1.309 212416
1.32645 222460
1.3439 234666
1.36136 248836
1.37881 264598
1.39626 281521
1.41372 299206
1.43117 317325
1.44862 335595
1.46608 353725
1.48353 371350
1.50098 387975
1.51844 402966
1.53589 415592
1.55334 425126
1.5708 431000
1.58825 432981
1.6057 431336
1.62316 426926
1.64061 421169
1.65806 415857
1.67552 412822
1.69297 413512
1.71042 418574
1.72788 427564
1.74533 438878
1.76278 449951
1.78024 457712
1.79769 459175
1.81514 452058
1.8326 435241
1.85005 408983
1.8675 374830
1.88496 335269
1.90241 293217
1.91986 251485
1.93732 212348
1.95477 177296
1.97222 146994
1.98968 121419
2.00713 100086
2.02458 82314.1
2.04204 67421.6
2.05949 54855.6
2.07694 44228.3
2.0944 35291.8
2.11185 27883.4
2.1293 21870.9
2.14675 17115.1
2.16421 13455.8
2.18166 10715.7
2.19911 8713.3
2.21657 7276.25
2.23402 6251.95
2.25147 5513.15
2.26893 4960.62
2.28638 4523.71
2.30383 4159.23
2.32129 3848.09
2.33874 3589.46
2.35619 3392.89
2.37365 3270.03
2.3911 3227.82
2.40855 3264.85
2.42601 3371.37
2.44346 3531.83
2.46091 3728.66
2.47837 3945.5
2.49582 4169.32
2.51327 4391.38
2.53073 4608
2.54818 4821.51
2.56563 5041.24
2.58309 5283.71
2.60054 5570.53
2.61799 5923.45
2.63545 6357.01
2.6529 6870.76
2.67035 7444.01
2.68781 8035.66
2.70526 8590.48
2.72271 9050.79
2.74017 9370.59
2.75762 9527.97
2.77507 9531.69
2.79253 9419.71
2.80998 9249.96
2.82743 9085.82
2.84489 8980.74
2.86234 8966.32
2.87979 9047.08
2.89725 9202.73
2.9147 9396.89
2.93215 9588.93
2.94961 9745.32
2.96706 9847.41
2.98451 9893.7
3.00197 9896.91
3.01942 9877.25
3.03687 9854.47
3.05433 9841.11
3.07178 9838.76
3.08923 9838.07
3.10669 9822.17
3.12414 9772.55
3.14159 9675.72
