Scattering Cross-Section: Angle, Cross-section
Random rotation
0 4.46264e+08
0.0174533 4.38431e+08
0.0349066 4.13255e+08
0.0523599 3.73277e+08
0.0698132 3.22443e+08
0.0872665 2.65541e+08
0.10472 2.07549e+08
0.122173 1.52995e+08
0.139626 1.0543e+08
0.15708 6.71001e+07
0.174533 3.88437e+07
0.191986 2.02102e+07
0.20944 9.75434e+06
0.226893 5.43446e+06
0.244346 5.03186e+06
0.261799 6.51801e+06
0.279253 8.31477e+06
0.296706 9.42181e+06
0.314159 9.41456e+06
0.331613 8.33963e+06
0.349066 6.5496e+06
0.366519 4.52259e+06
0.383972 2.70581e+06
0.401426 1.40923e+06
0.418879 759450
0.436332 708779
0.453786 1.08403e+06
0.471239 1.65414e+06
0.488692 2.19641e+06
0.506145 2.5463e+06
0.523599 2.62269e+06
0.541052 2.42825e+06
0.558505 2.03032e+06
0.575959 1.53116e+06
0.593412 1.0367e+06
0.610865 631396
0.628319 363627
0.645772 242510
0.663225 244369
0.680678 325149
0.698132 434619
0.715585 528765
0.733038 578002
0.750492 570336
0.767945 509927
0.785398 412432
0.802851 298887
0.820305 189805
0.837758 100734
0.855211 39923.3
0.872665 8138.24
0.890118 193.422
0.907571 7487.58
0.925025 20760.7
0.942478 32396.5
0.959931 37827.4
0.977384 35882.5
0.994838 28191.3
1.01229 17964.5
1.02974 8577.83
1.0472 2382.68
1.06465 61.4545
1.0821 669.446
1.09956 2303.52
1.11701 3157.54
1.13446 2612.15
1.15192 1990.31
1.16937 4696.28
1.18682 15625.1
1.20428 39939.4
1.22173 81505.1
1.23918 141402
1.25664 216941
1.27409 301518
1.29154 385427
1.309 457515
1.32645 507323
1.3439 527224
1.36136 514027
1.37881 469677
1.39626 400845
1.41372 317544
1.43117 231084
1.44862 151883
1.46608 87637.6
1.48353 42252
1.50098 15706.4
1.51844 4800.56
1.53589 4486.9
1.55334 9392
1.5708 15119.5
1.58825 19037.4
1.6057 20428.9
1.62316 20079.3
1.64061 19516.3
1.65806 20188.6
1.67552 22843
1.69297 27259.6
1.71042 32373.9
1.72788 36687.8
1.74533 38796.5
1.76278 37844.2
1.78024 33768.2
1.79769 27277.8
1.81514 19604.2
1.8326 12126.9
1.85005 6009.31
1.8675 1956.46
1.88496 154.952
1.90241 390.838
1.91986 2283.7
1.93732 5545.34
1.95477 10173.2
1.97222 16518.1
1.98968 25212.5
2.00713 36986.7
2.02458 52435.8
2.04204 71806
2.05949 94857.9
2.07694 120839
2.0944 148564
2.11185 176572
2.1293 203328
2.14675 227408
2.16421 247646
2.18166 263221
2.19911 273684
2.21657 278930
2.23402 279145
2.25147 274731
2.26893 266243
2.28638 254318
2.30383 239625
2.32129 222819
2.33874 204507
2.35619 185224
2.37365 165428
2.3911 145498
2.40855 125756
2.42601 106491
2.44346 87988.6
2.46091 70550.8
2.47837 54506.2
2.49582 40200.2
2.51327 27968.1
2.53073 18094.8
2.54818 10769.7
2.56563 6044.58
2.58309 3806.39
2.60054 3769.33
2.61799 5490.99
2.63545 8411.44
2.6529 11911.3
2.67035 15382.3
2.68781 18300.8
2.70526 20297.1
2.72271 21209.3
2.74017 21115.6
2.75762 20337.1
2.77507 19409.3
2.79253 19021.2
2.80998 19925.2
2.82743 22829.6
2.84489 28282.5
2.86234 36566.6
2.87979 47619.8
2.89725 60997
2.9147 75884.7
2.93215 91169.3
2.94961 105557
2.96706 117726
2.98451 126498
3.00197 130993
3.01942 130749
3.03687 125790
3.05433 116616
3.07178 104137
3.08923 89539.4
3.10669 74126.5
3.12414 59148.8
3.14159 45656.9
Random rotation
0 4.50082e+08
0.0174533 4.43125e+08
0.0349066 4.18888e+08
0.0523599 3.79849e+08
0.0698132 3.29863e+08
0.0872665 2.73611e+08
0.10472 2.15965e+08
0.122173 1.61364e+08
0.139626 1.13314e+08
0.15708 7.40717e+07
0.174533 4.45442e+07
0.191986 2.44038e+07
0.20944 1.23644e+07
0.226893 6.5535e+06
0.244346 4.90435e+06
0.261799 5.49741e+06
0.279253 6.80339e+06
0.296706 7.80507e+06
0.314159 8.00201e+06
0.331613 7.32361e+06
0.349066 5.98825e+06
0.366519 4.34878e+06
0.383972 2.75837e+06
0.401426 1.47853e+06
0.418879 637187
0.436332 232078
0.453786 165699
0.471239 294804
0.488692 478233
0.506145 611591
0.523599 643414
0.541052 573424
0.558505 437812
0.575959 288589
0.593412 173814
0.610865 123699
0.628319 144878
0.645772 222499
0.663225 327856
0.680678 428348
0.698132 496665
0.715585 516941
0.733038 486889
0.750492 416141
0.767945 321917
0.785398 223611
0.802851 137837
0.820305 75057.9
0.837758 38338
0.855211 24154.3
0.872665 24696.7
0.890118 30850.4
0.907571 35014
0.925025 33085.6
0.942478 25243.4
0.959931 15483.7
0.977384 10175
0.994838 16079.7
1.01229 38368.3
1.02974 79098.1
1.0472 136478
1.06465 205044
1.0821 276653
1.09956 342045
1.11701 392609
1.13446 421974
1.15192 427117
1.16937 408772
1.18682 371122
1.20428 320856
1.22173 265839
1.23918 213664
1.25664 170397
1.27409 139719
1.29154 122626
1.309 117665
1.32645 121630
1.3439 130507
1.36136 140476
1.37881 148737
1.39626 154017
1.41372 156687
1.43117 158499
1.44862 162029
1.46608 169981
1.48353 184489
1.50098 206576
1.51844 235843
1.53589 270454
1.55334 307371
1.5708 342802
1.58825 372753
1.6057 393589
1.62316 402515
1.64061 397924
1.65806 379560
1.67552 348514
1.69297 307060
1.71042 258385
1.72788 206244
1.74533 154594
1.76278 107241
1.78024 67528.2
1.79769 38082
1.81514 20630.3
1.8326 15897.6
1.85005 23578.7
1.8675 42390.5
1.88496 70198.5
1.90241 104210
1.91986 141220
1.93732 177892
1.95477 211049
1.97222 237946
1.98968 256502
2.00713 265456
2.02458 264449
2.04204 254002
2.05949 235420
2.07694 210613
2.0944 181875
2.11185 151637
2.1293 122230
2.14675 95675.9
2.16421 73535.9
2.18166 56816.1
2.19911 45942.8
2.21657 40796.6
2.23402 40795.7
2.25147 45013.1
2.26893 52307.7
2.28638 61455.2
2.30383 71263.3
2.32129 80662.9
2.33874 88770.4
2.35619 94922.6
2.37365 98687.9
2.3911 99859.1
2.40855 98435.9
2.42601 94599.5
2.44346 88683.5
2.46091 81141.1
2.47837 72507.5
2.49582 63357.6
2.51327 54258.6
2.53073 45722.5
2.54818 38161.1
2.56563 31852.5
2.58309 26924.4
2.60054 23357.9
2.61799 21014.4
2.63545 19679.5
2.6529 19117.6
2.67035 19125.9
2.68781 19575.9
2.70526 20434.6
2.72271 21758.2
2.74017 23661.1
2.75762 26265.6
2.77507 29642.5
2.79253 33758.5
2.80998 38440.9
2.82743 43371.7
2.84489 48113.8
2.86234 52168.9
2.87979 55056.2
2.89725 56399.5
2.9147 56004.8
2.93215 53913.7
2.94961 50419.3
2.96706 46039.5
2.98451 41449.6
3.00197 37384.6
3.01942 34526.6
3.03687 33397.3
3.05433 34273.3
3.07178 37140.4
3.08923 41692.7
3.10669 47376.8
3.12414 53471
3.14159 59185.9
Random rotation
0 4.37906e+08
0.0174533 4.27195e+08
0.0349066 3.99928e+08
0.0523599 3.58927e+08
0.0698132 3.08264e+08
0.0872665 2.52675e+08
0.10472 1.96915e+08
0.122173 1.45161e+08
0.139626 1.00545e+08
0.15708 6.49035e+07
0.174533 3.87416e+07
0.191986 2.14042e+07
0.20944 1.13961e+07
0.226893 6.7733e+06
0.244346 5.5302e+06
0.261799 5.91416e+06
0.279253 6.62668e+06
0.296706 6.89726e+06
0.314159 6.44358e+06
0.331613 5.35128e+06
0.349066 3.91587e+06
0.366519 2.48832e+06
0.383972 1.35583e+06
0.401426 674456
0.418879 455357
0.436332 593320
0.453786 919603
0.471239 1.25943e+06
0.488692 1.4782e+06
0.506145 1.50705e+06
0.523599 1.34587e+06
0.541052 1.04812e+06
0.558505 695242
0.575959 369636
0.593412 133349
0.610865 16548.9
0.628319 16517.9
0.645772 105018
0.663225 240260
0.680678 379436
0.698132 488600
0.715585 548105
0.733038 553382
0.750492 512061
0.767945 439092
0.785398 351593
0.802851 264752
0.820305 189441
0.837758 131581
0.855211 92793.8
0.872665 71679.2
0.890118 65111.2
0.907571 69167.6
0.925025 79609.6
0.942478 92067.1
0.959931 102200
0.977384 106076
0.994838 100839
1.01229 85564.6
1.02974 62001.8
1.0472 34867.7
1.06465 11414.9
1.0821 196.004
1.09956 9197.74
1.11701 43755.3
1.13446 104787
1.15192 187870
1.16937 283505
1.18682 378610
1.20428 458968
1.22173 512076
1.23918 529722
1.25664 509655
1.27409 455951
1.29154 378007
1.309 288427
1.32645 200353
1.3439 124890
1.36136 69213.1
1.37881 35748.9
1.39626 22494.2
1.41372 24265.9
1.43117 34450.8
1.44862 46758.6
1.46608 56543.9
1.48353 61445.1
1.50098 61305.9
1.51844 57546.5
1.53589 52271.1
1.55334 47417.7
1.5708 44184
1.58825 42832.9
1.6057 42847.9
1.62316 43302.8
1.64061 43275.1
1.65806 42152.6
1.67552 39750.7
1.69297 36244.6
1.71042 31983.7
1.72788 27294
1.74533 22363
1.76278 17260.6
1.78024 12094
1.79769 7241.7
1.81514 3580.53
1.8326 2613.81
1.85005 6434.02
1.8675 17493
1.88496 38201.8
1.90241 70426
1.91986 114973
1.93732 171176
1.95477 236670
1.97222 307432
1.98968 378093
2.00713 442508
2.02458 494505
2.04204 528694
2.05949 541212
2.07694 530285
2.0944 496505
2.11185 442796
2.1293 374068
2.14675 296630
2.16421 217473
2.18166 143529
2.19911 81024.3
2.21657 34982.8
2.23402 8930.02
2.25147 4772.19
2.26893 22817.6
2.28638 61886.2
2.30383 119462
2.32129 191865
2.33874 274433
2.35619 361749
2.37365 447919
2.3911 526928
2.40855 593080
2.42601 641470
2.44346 668458
2.46091 672059
2.47837 652184
2.49582 610693
2.51327 551215
2.53073 478770
2.54818 399234
2.56563 318725
2.58309 242995
2.60054 176905
2.61799 124056
2.63545 86606.4
2.6529 65269.5
2.67035 59476.4
2.68781 67649.9
2.70526 87532.1
2.72271 116512
2.74017 151902
2.75762 191146
2.77507 231934
2.79253 272246
2.80998 310338
2.82743 344700
2.84489 374014
2.86234 397129
2.87979 413070
2.89725 421079
2.9147 420677
2.93215 411740
2.94961 394562
2.96706 369893
2.98451 338932
3.00197 303279
3.01942 264839
3.03687 225684
3.05433 187898
3.07178 153415
3.08923 123864
3.10669 100448
3.12414 83862.5
3.14159 74259.4
Random rotation
0 4.56768e+08
0.0174533 4.46844e+08
0.0349066 4.19452e+08
0.0523599 3.77404e+08
0.0698132 3.24867e+08
0.0872665 2.66772e+08
0.10472 2.08137e+08
0.122173 1.53427e+08
0.139626 1.06054e+08
0.15708 6.80796e+07
0.174533 4.01527e+07
0.191986 2.16697e+07
0.20944 1.10974e+07
0.226893 6.38481e+06
0.244346 5.37778e+06
0.261799 6.16511e+06
0.279253 7.30716e+06
0.296706 7.9287e+06
0.314159 7.68733e+06
0.331613 6.65121e+06
0.349066 5.13137e+06
0.366519 3.51389e+06
0.383972 2.12751e+06
0.401426 1.16637e+06
0.418879 670870
0.436332 555486
0.453786 663835
0.471239 829514
0.488692 924874
0.506145 887335
0.523599 721197
0.541052 479978
0.558505 238523
0.575959 64911.6
0.593412 158.177
0.610865 49842.6
0.628319 187670
0.645772 367611
0.663225 539535
0.680678 663278
0.698132 717475
0.715585 701673
0.733038 632364
0.750492 535187
0.767945 436157
0.785398 354557
0.802851 299142
0.820305 268117
0.837758 252173
0.855211 239165
0.872665 218780
0.890118 185847
0.907571 141534
0.925025 92408.1
0.942478 47932
0.959931 17335.8
0.977384 6833.79
0.994838 17926.8
1.01229 47136.8
1.02974 87081.7
1.0472 128458
1.06465 162313
1.0821 182008
1.09956 184415
1.11701 170173
1.13446 143066
1.15192 108793
1.16937 73522.6
1.18682 42576.4
1.20428 19524.5
1.22173 5814.26
1.23918 911.888
1.25664 2822.18
1.27409 8797.59
1.29154 16044.5
1.309 22279
1.32645 26052.8
1.3439 26835.5
1.36136 24898.1
1.37881 21067.6
1.39626 16434.5
1.41372 12077
1.43117 8850.01
1.44862 7257.7
1.46608 7412.6
1.48353 9067.64
1.50098 11702.8
1.51844 14645
1.53589 17200.9
1.55334 18783.6
1.5708 19016.6
1.58825 17800.8
1.6057 15333.9
1.62316 12077.6
1.64061 8675.35
1.65806 5832.72
1.67552 4180.58
1.69297 4146.06
1.71042 5858.19
1.72788 9109.52
1.74533 13385.2
1.76278 17957.5
1.78024 22028
1.79769 24891.6
1.81514 26085.3
1.8326 25491.6
1.85005 23373.3
1.8675 20330
1.88496 17186.8
1.90241 14837.3
1.91986 14076
1.93732 15453.9
1.95477 19187.9
1.97222 25139.6
1.98968 32865
2.00713 41719.1
2.02458 50990.5
2.04204 60034.4
2.05949 68375.6
2.07694 75763.2
2.0944 82169.4
2.11185 87739
2.1293 92706.6
2.14675 97304.4
2.16421 101683
2.18166 105863
2.19911 109726
2.21657 113044
2.23402 115541
2.25147 116962
2.26893 117144
2.28638 116054
2.30383 113814
2.32129 110671
2.33874 106953
2.35619 103001
2.37365 99099
2.3911 95418.5
2.40855 91987.1
2.42601 88689.9
2.44346 85301.1
2.46091 81538.9
2.47837 77130.8
2.49582 71876.4
2.51327 65693.9
2.53073 58642.9
2.54818 50920.5
2.56563 42833.3
2.58309 34752.9
2.60054 27063.6
2.61799 20112.9
2.63545 14171.1
2.6529 9405.67
2.67035 5871.36
2.68781 3516.33
2.70526 2201.4
2.72271 1729.75
2.74017 1883.48
2.75762 2462.84
2.77507 3323.41
2.79253 4405.12
2.80998 5747.11
2.82743 7482.42
2.84489 9809
2.86234 12937.5
2.87979 17021.5
2.89725 22081.8
2.9147 27940.8
2.93215 34185.5
2.94961 40174.9
2.96706 45103.5
2.98451 48118.7
3.00197 48482
3.01942 45748
3.03687 39928.1
3.05433 31601.5
3.07178 21939
3.08923 12620
3.10669 5636.26
3.12414 3003.12
3.14159 6415.56
Random rotation
0 4.46866e+08
0.0174533 4.39204e+08
0.0349066 4.14065e+08
0.0523599 3.74033e+08
0.0698132 3.23099e+08
0.0872665 2.66085e+08
0.10472 2.07989e+08
0.122173 1.53338e+08
0.139626 1.05676e+08
0.15708 6.72327e+07
0.174533 3.88347e+07
0.191986 2.00281e+07
0.20944 9.37656e+06
0.226893 4.85871e+06
0.244346 4.28371e+06
0.261799 5.65198e+06
0.279253 7.40844e+06
0.296706 8.56417e+06
0.314159 8.69093e+06
0.331613 7.81651e+06
0.349066 6.26252e+06
0.366519 4.46971e+06
0.383972 2.84843e+06
0.401426 1.67932e+06
0.418879 1.07248e+06
0.436332 979387
0.453786 1.24128e+06
0.471239 1.65336e+06
0.488692 2.0254e+06
0.506145 2.22468e+06
0.523599 2.19492e+06
0.541052 1.95201e+06
0.558505 1.56296e+06
0.575959 1.11722e+06
0.593412 699290
0.610865 369136
0.628319 153545
0.645772 47952.3
0.663225 25761.3
0.680678 50893.2
0.698132 89502
0.715585 117953
0.733038 125865
0.750492 114630
0.767945 92975.6
0.785398 71587.4
0.802851 58593
0.820305 57066.8
0.837758 64846.2
0.855211 76215.4
0.872665 84537.2
0.890118 84813.3
0.907571 75361.2
0.925025 58206.6
0.942478 38240.9
0.959931 21555
0.977384 13542.8
0.994838 17350.2
1.01229 33072.8
1.02974 57841.3
1.0472 86676.9
1.06465 113808
1.0821 134058
1.09956 143954
1.11701 142313
1.13446 130240
1.15192 110611
1.16937 87233.5
1.18682 63928.5
1.20428 43748.8
1.22173 28497.6
1.23918 18607.5
1.25664 13357
1.27409 11320.7
1.29154 10919.6
1.309 10926.1
1.32645 10813.4
1.3439 10882.8
1.36136 12161.3
1.37881 16111.6
1.39626 24233.4
1.41372 37654.1
1.43117 56798.8
1.44862 81209.4
1.46608 109545
1.48353 139762
1.50098 169419
1.51844 196062
1.53589 217586
1.55334 232525
1.5708 240216
1.58825 240808
1.6057 235155
1.62316 224599
1.64061 210726
1.65806 195126
1.67552 179214
1.69297 164119
1.71042 150651
1.72788 139319
1.74533 130368
1.76278 123821
1.78024 119501
1.79769 117028
1.81514 115820
1.8326 115105
1.85005 113974
1.8675 111478
1.88496 106772
1.90241 99267
1.91986 88774.1
1.93732 75593.5
1.95477 60520.5
1.97222 44760.1
1.98968 29759
2.00713 16985.4
2.02458 7700.96
2.04204 2770.88
2.05949 2552.49
2.07694 6883.31
2.0944 15168.9
2.11185 26548.6
2.1293 40102
2.14675 55049.2
2.16421 70903.9
2.18166 87546.9
2.19911 105207
2.21657 124356
2.23402 145537
2.25147 169168
2.26893 195356
2.28638 223753
2.30383 253496
2.32129 283224
2.33874 311182
2.35619 335400
2.37365 353905
2.3911 364951
2.40855 367234
2.42601 360049
2.44346 343394
2.46091 317992
2.47837 285236
2.49582 247067
2.51327 205795
2.53073 163886
2.54818 123735
2.56563 87456
2.58309 56696.3
2.60054 32516.4
2.61799 15328.6
2.63545 4912.17
2.6529 497.129
2.67035 906.3
2.68781 4733.74
2.70526 10534.6
2.72271 16998.7
2.74017 23083.9
2.75762 28092
2.77507 31682.5
2.79253 33827.5
2.80998 34726.8
2.82743 34703
2.84489 34103.8
2.86234 33228.6
2.87979 32294.2
2.89725 31437.5
2.9147 30746.3
2.93215 30299.8
2.94961 30200.6
2.96706 30579.7
2.98451 31570.1
3.00197 33251.2
3.01942 35581.1
3.03687 38338.6
3.05433 41098.9
3.07178 43262.7
3.08923 44144.3
3.10669 43110.3
3.12414 39744.6
3.14159 34006.1
Random rotation
0 4.45048e+08
0.0174533 4.33568e+08
0.0349066 4.04914e+08
0.0523599 3.62014e+08
0.0698132 3.09137e+08
0.0872665 2.51279e+08
0.10472 1.93473e+08
0.122173 1.40144e+08
0.139626 9.46033e+07
0.15708 5.87682e+07
0.174533 3.31145e+07
0.191986 1.68607e+07
0.20944 8.31398e+06
0.226893 5.30142e+06
0.244346 5.5968e+06
0.261799 7.27065e+06
0.279253 8.91425e+06
0.296706 9.72122e+06
0.314159 9.44065e+06
0.331613 8.23841e+06
0.349066 6.51457e+06
0.366519 4.72436e+06
0.383972 3.23914e+06
0.401426 2.26764e+06
0.418879 1.83974e+06
0.436332 1.84067e+06
0.453786 2.07456e+06
0.471239 2.33435e+06
0.488692 2.4588e+06
0.506145 2.36493e+06
0.523599 2.05305e+06
0.541052 1.58908e+06
0.558505 1.07354e+06
0.575959 608055
0.593412 268426
0.610865 89804.8
0.628319 65172.3
0.645772 154755
0.663225 301712
0.680678 448867
0.698132 552118
0.715585 587947
0.733038 554448
0.750492 467059
0.767945 351162
0.785398 234021
0.802851 138080
0.820305 76881.3
0.837758 53911.7
0.855211 63967.5
0.872665 96121.4
0.890118 137259
0.907571 175279
0.925025 201359
0.942478 211040
0.959931 204194
0.977384 184159
0.994838 156402
1.01229 127073
1.02974 101742
1.0472 84487.9
1.06465 77414.4
1.0821 80578
1.09956 92244.5
1.11701 109374
1.13446 128224
1.15192 144963
1.16937 156233
1.18682 159589
1.20428 153794
1.22173 138958
1.23918 116522
1.25664 89089.3
1.27409 60141.6
1.29154 33650
1.309 13619.6
1.32645 3606.7
1.3439 6252.08
1.36136 22884.7
1.37881 53246.9
1.39626 95391.6
1.41372 145785
1.43117 199633
1.44862 251402
1.46608 295506
1.48353 327047
1.50098 342520
1.51844 340361
1.53589 321232
1.55334 287979
1.5708 245253
1.58825 198827
1.6057 154738
1.62316 118375
1.64061 93687.6
1.65806 82637.7
1.67552 84997.1
1.69297 98507.7
1.71042 119364
1.72788 142914
1.74533 164452
1.76278 179945
1.78024 186596
1.79769 183152
1.81514 169939
1.8326 148648
1.85005 121938
1.8675 92934.2
1.88496 64733.7
1.90241 39977.6
1.91986 20566.2
1.93732 7543.01
1.95477 1146.56
1.97222 1002.62
1.98968 6400.21
2.00713 16583.6
2.02458 30989.2
2.04204 49369.3
2.05949 71769.7
2.07694 98364.6
2.0944 129187
2.11185 163825
2.1293 201172
2.14675 239300
2.16421 275532
2.18166 306703
2.19911 329589
2.21657 341424
2.23402 340393
2.25147 326010
2.26893 299274
2.28638 262580
2.30383 219391
2.32129 173721
2.33874 129550
2.35619 90258.6
2.37365 58205.8
2.3911 34503.7
2.40855 19026.2
2.42601 10623.6
2.44346 7483.42
2.46091 7554.27
2.47837 8943.53
2.49582 10217
2.51327 10556
2.53073 9761.32
2.54818 8127.89
2.56563 6235.2
2.58309 4712.62
2.60054 4034.94
2.61799 4390.94
2.63545 5646.41
2.6529 7400.42
2.67035 9112.7
2.68781 10266.5
2.70526 10525.7
2.72271 9848.05
2.74017 8529.03
2.75762 7163.9
2.77507 6535.75
2.79253 7450.88
2.80998 10554.5
2.82743 16164.5
2.84489 24157.4
2.86234 33933.1
2.87979 44469.2
2.89725 54460
2.9147 62518.8
2.93215 67410.9
2.94961 68274.6
2.96706 64791.1
2.98451 57270.4
3.00197 46632.8
3.01942 34287.1
3.03687 21922
3.05433 11244.2
3.07178 3708.95
3.08923 288.405
3.10669 1319.04
3.12414 6455.09
3.14159 14736.1
Random rotation
0 4.59403e+08
0.0174533 4.51575e+08
0.0349066 4.2594e+08
0.0523599 3.85127e+08
0.0698132 3.33179e+08
0.0872665 2.74974e+08
0.10472 2.15571e+08
0.122173 1.59563e+08
0.139626 1.10555e+08
0.15708 7.08435e+07
0.174533 4.13144e+07
0.191986 2.15636e+07
0.20944 1.01903e+07
0.226893 5.1886e+06
0.244346 4.36103e+06
0.261799 5.67931e+06
0.279253 7.54094e+06
0.296706 8.89709e+06
0.314159 9.25527e+06
0.331613 8.58352e+06
0.349066 7.15617e+06
0.366519 5.38483e+06
0.383972 3.67155e+06
0.401426 2.3086e+06
0.418879 1.43374e+06
0.436332 1.03595e+06
0.453786 996691
0.471239 1.14735e+06
0.488692 1.3246e+06
0.506145 1.41041e+06
0.523599 1.35054e+06
0.541052 1.152e+06
0.558505 865320
0.575959 559751
0.593412 299544
0.610865 127139
0.628319 56055.6
0.645772 73086.3
0.663225 147054
0.680678 240356
0.698132 319640
0.715585 363026
0.733038 362789
0.750492 323853
0.767945 259469
0.785398 185837
0.802851 117344
0.820305 63477.5
0.837758 27821.7
0.855211 8862.97
0.872665 1927.51
0.890118 1430.74
0.907571 2738.07
0.925025 3220.04
0.942478 2416.26
0.959931 1498.46
0.977384 2378.41
0.994838 6823.24
1.01229 15846.6
1.02974 29490.4
1.0472 46959.3
1.06465 66964.3
1.0821 88098.3
1.09956 109101
1.11701 128944
1.13446 146765
1.15192 161723
1.16937 172897
1.18682 179291
1.20428 179985
1.22173 174390
1.23918 162503
1.25664 145085
1.27409 123650
1.29154 100272
1.309 77222.2
1.32645 56552.9
1.3439 39726.8
1.36136 27410.8
1.37881 19485.3
1.39626 15261.9
1.41372 13837.5
1.43117 14471.7
1.44862 16866.4
1.46608 21258.7
1.48353 28294.7
1.50098 38720.3
1.51844 52982.7
1.53589 70866
1.55334 91276.9
1.5708 112260
1.58825 131258
1.6057 145558
1.62316 152831
1.64061 151626
1.65806 141702
1.67552 124117
1.69297 101058
1.71042 75447.6
1.72788 50424.8
1.74533 28811.4
1.76278 12675.4
1.78024 3073.15
1.79769 2.25062
1.81514 2550.44
1.8326 9184.13
1.85005 18098.3
1.8675 27548.6
1.88496 36103.5
1.90241 42783.2
1.91986 47084.1
1.93732 48912.2
1.95477 48465.2
1.97222 46105
1.98968 42252.1
2.00713 37321.4
2.02458 31698.3
2.04204 25744.3
2.05949 19811.4
2.07694 14248.3
